V(V),I
0.81955,9.9
0.82061,9.2
0.8214,8.75
0.82246,8.1
0.8267,6.9
0.82875,5.7
0.8292,5.3
0.82989,4.9
0.83127,4
0.83192,3.6
0.83242,3.2
0.83312,2.8
0.83383,2.3
0.83479,1.7
0.83597,0.95
0.83661,0.5
0.83692,0.2
