V(V),I(microA)
0.31464,2.3
0.31854,2.15
0.32224,2
0.32447,1.9
0.32836,1.75
0.33214,1.65
0.3381,1.45
0.34431,1.3
0.34765,1.2
0.35583,1
0.36349,0.825
0.37044,0.7
0.3792,0.55
0.39103,0.4
0.4033,0.25
0.4166,0.1
0.42197,0.05
